B and C, n=4, tf = 2.0
Energy = -1.9999984050621074
[(0, 1), (0, 3), (0, 2), (1, 2), (1, 3), (2, 3)]
0.0	0.7590117450169424	-0.00010943448031463782
0.002	0.7642612350658667	-0.00010531611222069047
0.004	0.7694903738835498	-0.00010129169524035822
0.006	0.774685299772577	-9.83384844471108e-05
0.008	0.7798636997150281	-9.433290348631954e-05
0.01	0.7850304532597203	-9.020488716653813e-05
0.012	0.790176967746751	-8.630433903933366e-05
0.014	0.7953023582902679	-8.239827413673156e-05
0.016	0.8004048732495173	-7.835297223354742e-05
0.018	0.8054833615352628	-7.444307969239894e-05
0.02	0.81053701600459	-7.064357469095672e-05
0.022	0.8155640715496741	-6.690105095209786e-05
0.024	0.8205654704673686	-6.294696353709162e-05
0.026	0.8255399982680497	-5.885325689737597e-05
0.028	0.8304882273385004	-5.471441659812837e-05
0.03	0.8354085697074337	-5.059671050906822e-05
0.032	0.8402995522482131	-4.6486867511630336e-05
0.034	0.8451597762343223	-4.2412636076627486e-05
0.036	0.8499888532712404	-3.83340168069457e-05
0.038	0.8547868414836778	-3.433462323956804e-05
0.04	0.8595538166474492	-3.0479351034617963e-05
0.042	0.8642895534812207	-2.654513721980778e-05
0.044	0.8689937059411522	-2.2314456348815348e-05
0.046	0.8736651527993723	-1.7845239251829126e-05
0.048	0.8783022272133068	-1.3159423363995337e-05
0.05	0.8829038844155634	-8.488346626617238e-06
0.052	0.8874702331577512	-4.235182226614009e-06
0.054	0.8920011028269613	-4.613023596722332e-07
0.056	0.8964961151746432	3.072688295802095e-06
0.058	0.9009549016551456	6.724805617752683e-06
0.06	0.9053766111726629	1.0646047257534264e-05
0.062	0.9097601803234252	1.4783950269242618e-05
0.064	0.9141050184383553	1.892904774794535e-05
0.066	0.9184106955095334	2.3203305140939712e-05
0.068	0.9226768321240739	2.7686478761806965e-05
0.07	0.9269034170064986	3.224735793316835e-05
0.072	0.9310905584397595	3.6922619636226006e-05
0.074	0.9352377040896106	4.161688753478998e-05
0.076	0.9393438245991036	4.6223449266025174e-05
0.078	0.9434077243699948	5.068538322816618e-05
0.08	0.947428927739439	5.482824134628306e-05
0.082	0.9514073772868018	5.882923488326197e-05
0.084	0.955343042623966	6.266782575420349e-05
0.086	0.95923613927898	6.659724374225018e-05
0.088	0.9630868837466064	7.057695508638773e-05
0.09	0.9668947852994342	7.455431142827651e-05
0.092	0.9706589039270302	7.847220940404576e-05
0.094	0.974378138222301	8.280192071385972e-05
0.096	0.9780531028280803	8.729597605811046e-05
0.098	0.9816831148339756	9.129669428903364e-05
0.1	0.985266722273303	9.560133987213115e-05
0.102	0.9888038624494474	9.97773018910908e-05
0.104	0.9922949255019063	0.00010416224699294485
0.106	0.9957404806527589	0.00010826145266501497
0.108	0.9991420619897501	0.00011271128276435505
0.11	0.9985587384648691	0.000118547475168429
0.112	0.9949008354802701	0.00012233315155185664
0.114	0.9932595202073616	0.00012658145403987575
0.116	0.9930306494261956	0.00013075502538661965
0.118	0.9967491466659948	0.00013584912855491016
0.12	0.9874109554938217	0.0001392034959706856
0.122	0.981108670039361	0.000142851523094234
0.124	0.9792880614346419	0.00014571943659985598
0.126	0.9787116668670073	0.00015058626746239367
0.128	0.9781231612762251	0.00015349489186822218
0.13	0.9842498211715703	0.00015657705364069407
0.132	0.98581223484047	0.00015988554052298598
0.134	0.9769557280326376	0.00016602850191121954
0.136	0.948505406591945	0.0001675832977608982
0.138	0.9381201695392021	0.00017191285174000814
0.14	0.9393390977845752	0.0001766430184019785
0.142	0.9098428195987472	0.0001800300178313452
0.144	0.8995269418806069	0.00018359950499768907
0.146	0.9005607351190354	0.0001868573896714465
0.148	0.9016100805547945	0.00019110664376265074
0.15	0.8761120983123706	0.00019515840446976407
0.152	0.8663346667068352	0.00019904481141669317
0.154	0.8671405444847313	0.00020216699621072864
0.156	0.8679531507193574	0.00020553162475456244
0.158	0.8687873130818116	0.00020961818972686785
0.16	0.8495835383648469	0.00021245107856060486
0.162	0.8438808171947104	0.00021520987470119435
0.164	0.8443869356074163	0.00021837922699607937
0.166	0.8448996136353162	0.00022163837536326447
0.168	0.8454240359725214	0.00022516098234853787
0.17	0.845972813034194	0.00023096794787397235
0.172	0.8390562791215476	0.00023458666151504604
0.174	0.8388286610729243	0.0002375363129739072
0.176	0.8386077636777477	0.0002408213817791105
0.178	0.8383991209871453	0.00024449315994046206
0.18	0.8382013433275641	0.0002480260549591051
0.182	0.8380134986698515	0.0002514518758666151
0.184	0.8378340134705163	0.0002547806761503679
0.186	0.8376654339599301	0.0002581464601612016
0.188	0.8375090832024351	0.00026144236834801937
0.19	0.8373638510929643	0.0002646691768843912
0.192	0.8372290955630457	0.00026789141825289686
0.194	0.8371047410728001	0.0002711087020161873
0.196	0.8369908379107884	0.00027434035431084247
0.198	0.8368873662077103	0.00027754106034205694
0.2	0.8367941976269035	0.0002806398734018778
0.202	0.8367114823583952	0.0002837469285932315
0.204	0.8366402416959147	0.00028687937798332896
0.206	0.8365808915473972	0.000290126881177577
0.208	0.8365321511883336	0.00029335128135377087
0.21	0.8364920084700188	0.00029636868652704873
0.212	0.8364615232242708	0.0002990938209006533
0.214	0.8364399715824195	0.0003013269906713134
0.216	0.8364299199142794	0.0003033660452163023
0.218	0.8364480544464001	0.0003061243455921847
0.22	0.8363745207432435	0.0003090749805741977
0.222	0.8359806659911937	0.0003119956369862509
0.224	0.8356107393961237	0.00031528212676212863
0.226	0.8352536131295475	0.00031844748014919766
0.228	0.8349036546313858	0.0003208116796999949
0.23	0.8345636918533373	0.0003226072559285864
0.232	0.834225839974392	0.00032484083806572084
0.234	0.8338981988057301	0.0003278718709618378
0.236	0.8335869829960212	0.0003312789187539522
0.238	0.8332902162376586	0.0003345715064296817
0.24	0.8330042070413913	0.0003376308848019871
0.242	0.8327281619976653	0.00034052147746566064
0.244	0.8324621988828524	0.00034321561982408877
0.246	0.8322067097819305	0.00034584404614979025
0.248	0.8319623566952591	0.00034843757731339853
0.25	0.8317290872479923	0.00035101604735532366
0.252	0.8315069537098422	0.0003536456415546563
0.254	0.8312960353320038	0.00035631561664389855
0.256	0.8310961282569533	0.00035899146716150687
0.258	0.8309071336649851	0.00036160504852827957
0.26	0.8307290546349326	0.0003641589267694978
0.262	0.830561965442748	0.0003666823387585283
0.264	0.830405685154885	0.00036919724453493563
0.266	0.8302601321284796	0.0003715885147353992
0.268	0.8301254850596881	0.0003738262201248843
0.27	0.830003150651978	0.0003760535399666143
0.272	0.8298948222046985	0.00037837025786446876
0.274	0.8297957945871868	0.00038095349206840323
0.276	0.8297059043669449	0.00038307954609961836
0.278	0.8296262274753119	0.0003850229768848634
0.28	0.8295588218147347	0.00038663576805020305
0.282	0.8295118636089492	0.0003889196027080377
0.284	0.8290467928131441	0.00039147170604070247
0.286	0.8286031007769342	0.00039470068666774827
0.288	0.8281728781694934	0.00039760896564861037
0.29	0.8277513978180125	0.0003997120166331358
0.292	0.82734009529667	0.00040186392716912156
0.294	0.8269328170285106	0.00040306513324683824
0.296	0.8265342931265928	0.00040503856774731783
0.298	0.8261527886175323	0.0004077976779571779
0.3	0.8257861466927829	0.00041029679409104736
0.302	0.8254309965090585	0.0004124066585086128
0.304	0.8250868576352943	0.00041439725578718
0.306	0.8247540278992168	0.0004162980492304902
0.308	0.8244328345247035	0.000418152989627385
0.31	0.8241232958974014	0.0004199927071908971
0.312	0.8238252965373455	0.00042179805286557404
0.314	0.8235388215583389	0.0004235793279755429
0.316	0.8232640129238528	0.0004253594470381983
0.318	0.8230009513698242	0.00042715343361732216
0.32	0.8227492627923451	0.000428873318458034
0.322	0.8225093118578645	0.0004303582117410887
0.324	0.8222831294157285	0.00043197205605938205
0.326	0.8220698289003034	0.000433913816583531
0.328	0.8218643337291542	0.00043582528642605034
0.33	0.8216705545509376	0.0004374017566279309
0.332	0.821488518963744	0.00043851844397990725
0.334	0.8213333784652431	0.00043981529600262137
0.336	0.8208099271617643	0.00043942482012510053
0.338	0.820244486218377	0.0004387344451791675
0.34	0.8196987486064186	0.00043984505256594586
0.342	0.8191650884153578	0.0004412400093278257
0.344	0.8186416843582912	0.0004424861231628885
0.346	0.8181269373495574	0.00044346706578235473
0.348	0.8176229624117267	0.00044430904046965924
0.35	0.8171337104400748	0.00044549722655740087
0.352	0.816658863906151	0.0004470287725394373
0.354	0.8161968365353798	0.00044841390214633847
0.356	0.8157471273967256	0.00044944573136235233
0.358	0.8153098776914629	0.0004504430034329987
0.36	0.8148854655941756	0.00045151641330076764
0.362	0.8144740647690062	0.000452518694144477
0.364	0.8140749530071054	0.0004536797856597996
0.366	0.813688027278429	0.00045466520409931377
0.368	0.8133129304657217	0.0004551525834623482
0.37	0.8129514222172527	0.0004550865914556279
0.372	0.8126149310738395	0.00045558892174105137
0.374	0.8122070284658696	0.0004566954659658007
0.376	0.8114662070086447	0.0004569017985681101
0.378	0.8107465942166453	0.00045781214312723417
0.38	0.8100404486099942	0.0004585383397735232
0.382	0.8093464983918991	0.0004592209777583567
0.384	0.8086644137045126	0.0004598934357705198
0.386	0.8079905850395455	0.00046049034082595863
0.388	0.8073299480128765	0.00046086815489507216
0.39	0.8066868473527284	0.00046105352952674483
0.392	0.8060591748884313	0.0004614599377314177
0.394	0.8054422240258614	0.00046201116551849997
0.396	0.8048381894745631	0.0004626732816094825
0.398	0.8042490909847747	0.000463692381306835
0.4	0.8036812746242887	0.0004663798675563491
0.402	0.8027356018171139	0.00046673295768222267
0.404	0.8017847763130422	0.0004668603092391199
0.406	0.800847499002675	0.0004670837432423913
0.408	0.7999282204708115	0.00046738951449475097
0.41	0.7990244502687096	0.0004676573526950639
0.412	0.7981337298254544	0.00046808112817534053
0.414	0.7972779067322796	0.0004711416153993092
0.416	0.7962664019159085	0.00047204475545555014
0.418	0.7950352202392647	0.0004711369186640793
0.42	0.7938368981690396	0.00047142080494177313
0.422	0.7925561595905551	0.00047070551444190756
0.424	0.7909521645574974	0.00047029102607701323
0.426	0.7890802911034772	0.0004701613579354315
0.428	0.7872481273459281	0.0004703902077322977
0.43	0.7852853719178463	0.0004712078688715749
0.432	0.7831334277731308	0.0004710793852653241
0.434	0.7809929759351767	0.00047102159239947265
0.436	0.7788726394611575	0.0004710601193771372
0.438	0.776768427355292	0.00047103061227881174
0.44	0.7746797063250008	0.00047081867163216787
0.442	0.7726059984208994	0.00047043006358422207
0.444	0.7705477315834818	0.0004699798211426007
0.446	0.768507222702208	0.0004696000222086799
0.448	0.766485133652678	0.0004694060534495281
0.45	0.7644612221771087	0.0004684686945807398
0.452	0.7627534241982912	0.0004684518659923559
0.454	0.7611000086202697	0.00046786952536012616
0.456	0.7594560503311049	0.00046710904280150567
0.458	0.7578282322468045	0.0004665228297060231
0.46	0.7562179793283071	0.00046598834662135713
0.462	0.7546247797010244	0.00046543791654808653
0.464	0.7530491831354198	0.0004647647696461449
0.466	0.7514936897959134	0.00046429834688448135
0.468	0.7499457014775485	0.00046264854631408725
0.47	0.7516775206548223	0.00046174355678996193
0.472	0.7545209927211157	0.00046116677044474863
0.474	0.7562197140275811	0.00045970939619074946
0.476	0.7550772803521181	0.000459092086587759
0.478	0.7539564847678725	0.00045846414235237165
0.48	0.7528545941630802	0.0004579981498019081
0.482	0.7517704442882882	0.0004574903072131764
0.484	0.7507041966080564	0.00045683528117529404
0.486	0.7496551808414078	0.00045589229627424066
0.488	0.748624439768319	0.0004546705754704117
0.49	0.7476126441121529	0.0004536056967886781
0.492	0.7466192670636715	0.0004526148856743295
0.494	0.7456447549892882	0.00045143992224172536
0.496	0.7446890806153063	0.0004503131153209827
0.498	0.7437519608064219	0.000449415710140566
0.5	0.7428352334639956	0.0004488964825498931
0.502	0.7419290403733168	0.0004485930672798455
0.504	0.7444484956281129	0.0004474140995798237
0.506	0.7527451113226118	0.00044639129807586
0.508	0.7546572418504358	0.00044642205052636275
0.51	0.7541584735741638	0.00044521703440933424
0.512	0.7536801508076766	0.0004438344303679398
0.514	0.7532226866963113	0.00044260906030532676
0.516	0.7527771950651548	0.00044066919453145115
0.518	0.762492912659722	0.00044054798646900317
0.52	0.770095176869257	0.0004365792116316214
0.522	0.770040007109312	0.0004345856163084083
0.524	0.7843939636589145	0.00043396841794862695
0.526	0.7806171253688091	0.0004328071097835229
0.528	0.77683838435688	0.0004313963294573786
0.53	0.7730569551128846	0.0004299773891039971
0.532	0.7692731437893856	0.0004285547529580269
0.534	0.7654873526002693	0.00042711895309680004
0.536	0.7617003499855489	0.0004256630881284973
0.538	0.7579123433896586	0.00042419300008186833
0.54	0.7541236427458143	0.00042268001051870563
0.542	0.7503349517299267	0.00042108657722320086
0.544	0.746546493912594	0.00041945773914434104
0.546	0.7427589094105354	0.0004178276067539899
0.548	0.7389727071370117	0.00041620051369631317
0.55	0.7351885491384009	0.0004145343363884668
0.552	0.7314068222869035	0.00041284434482699583
0.554	0.7276277546920102	0.0004111327210604143
0.556	0.7238519732469749	0.0004094130945987151
0.558	0.7200801170851313	0.00040764597888294507
0.56	0.716312320216994	0.0004058369567658121
0.562	0.712549172874306	0.00040401263669505305
0.564	0.7087909407543094	0.00040217729893360366
0.566	0.7050380305414311	0.00040033962902952247
0.568	0.7012907532930973	0.0003985337022522628
0.57	0.6975494283699917	0.00039674268986975014
0.572	0.6938145096173141	0.00039493715863703205
0.574	0.6900863801062335	0.0003930746921332745
0.576	0.686365364707112	0.0003911226166518067
0.578	0.6826518908592966	0.0003891374030393288
0.58	0.6789465125936278	0.0003871492912061597
0.582	0.6752497945234449	0.0003851717096851198
0.584	0.6715623673252712	0.0003831839079368668
0.586	0.6678847579257453	0.0003812282950022908
0.588	0.6642174601533761	0.0003793001355560169
0.59	0.6605608847511844	0.00037739485544998827
0.592	0.6569154355709006	0.0003754774322302888
0.594	0.6532814077776415	0.000373501285314444
0.596	0.649659082147028	0.0003714745490073501
0.598	0.6460487650759171	0.0003694687680327047
0.6	0.6424509326842287	0.0003674534118641576
0.602	0.6388659973359131	0.0003654118195442011
0.604	0.6352944448534914	0.00036336343429991223
0.606	0.6317368033830753	0.0003613325306154075
0.608	0.6281936501040001	0.0003593340134728177
0.61	0.6246654013949405	0.0003573547584294059
0.612	0.6211524722361913	0.00035536321197174314
0.614	0.6176550846368758	0.0003533165373607403
0.616	0.6141733788375424	0.00035126237830675373
0.618	0.6107077214484109	0.00034922418900497354
0.62	0.6072586224049363	0.0003471919832314964
0.622	0.6038265788171305	0.00034515117924156097
0.624	0.600412099952587	0.00034307361401997305
0.626	0.5970156048581645	0.0003409166939688478
0.628	0.593637460554957	0.0003387204251777756
0.63	0.5902781877124371	0.0003365104691527669
0.632	0.5869383687076623	0.0003342510239351254
0.634	0.5836184487410838	0.0003319036421152305
0.636	0.5803187081961363	0.00032951446733214124
0.638	0.5770394953455634	0.00032709552748443754
0.64	0.573780895719612	0.0003247716543202592
0.642	0.5705431684578149	0.0003225965628052066
0.644	0.5673267454374163	0.00032052793079136166
0.646	0.5641318709288883	0.00031850925285360765
0.648	0.5609587282376214	0.00031651644243373134
0.65	0.5578074895121218	0.00031443680988960804
0.652	0.5546785095898717	0.0003122807021233645
0.654	0.5515723039264167	0.00031004671075278434
0.656	0.548489494208262	0.00030762423217672863
0.658	0.5454304881354721	0.0003051079574861726
0.66	0.5423957323706143	0.0003026167383461398
0.662	0.5393856934785364	0.0003002449194448309
0.664	0.5364006954618744	0.0002980081297440512
0.666	0.5334410567732368	0.0002958748522376778
0.668	0.5305072713784584	0.0002938356432540326
0.67	0.5275995936472642	0.00029186723272381365
0.672	0.5247182138366143	0.0002899128104884713
0.674	0.5218633108725651	0.00028788749531436647
0.676	0.5190350678651541	0.0002858380095731583
0.678	0.5162336977657155	0.0002838020984538975
0.68	0.5134595213073969	0.0002817431384583846
0.682	0.510712718018685	0.0002796309458833607
0.684	0.5079935109842166	0.0002774361120520749
0.686	0.5053020344422152	0.000275141894868082
0.688	0.502638809325854	0.0002726691781281057
0.69	0.5000042549992421	0.00027003082173700926
0.692	0.49739862294444337	0.00026742553165252925
0.694	0.49482201054551805	0.0002650728270179384
0.696	0.4922745886570942	0.00026298763805954195
0.698	0.4897563950654341	0.0002610183343597014
0.7	0.4872675971621471	0.0002590114160562623
0.702	0.4848084493386658	0.0002567798045246053
0.704	0.48237915448031604	0.0002543792315307866
0.706	0.479979837731768	0.00025195061120476814
0.708	0.47761089230685677	0.0002495746101236207
0.71	0.47527264107515005	0.000247312023201926
0.712	0.47296534394016676	0.00024519693185905134
0.714	0.4706892291818862	0.000243237790987616
0.716	0.46844437834135066	0.00024142463568228856
0.718	0.46623087142425834	0.0002397258113924633
0.72	0.46404877082939794	0.0002380857273074008
0.722	0.46189808241513985	0.00023645588198583506
0.724	0.4597789639865677	0.00023484039908525794
0.726	0.4576916719276525	0.00023329668990638291
0.728	0.4556361427046575	0.00023178551575016304
0.73	0.4536123009407579	0.00023031050168305367
0.732	0.4516203015714502	0.00022885988505218224
0.734	0.44966029992612594	0.00022739729586641888
0.736	0.44773255621245633	0.00022592349401816259
0.738	0.44583738413852164	0.0002245101962582638
0.74	0.4439746213893738	0.0002231531486408221
0.742	0.4421440240311392	0.0002218416187150206
0.744	0.4403455781467527	0.00022056505408785815
0.746	0.4385790892334479	0.0002192485612070305
0.748	0.43684459739691506	0.00021787737365772455
0.75	0.4351421564143691	0.0002164855420268251
0.752	0.4334719514917148	0.00021500231393310407
0.754	0.43183406947855846	0.0002135142706419825
0.756	0.4302288280355553	0.00021210296718445973
0.758	0.4286565784011215	0.00021082702470620954
0.76	0.42711734461795575	0.00020971495900700202
0.762	0.4256108185785011	0.0002087460883513463
0.764	0.42413671981954604	0.00020788416844333933
0.766	0.42269487152758367	0.00020707736835147775
0.768	0.42128494714839365	0.00020626814796706298
0.77	0.4199066157747335	0.0002053267049216198
0.772	0.4185597204217768	0.00020422730741329748
0.774	0.4172442758894529	0.00020306464202294108
0.776	0.41596042548264583	0.00020181417134015976
0.778	0.41470834007705254	0.0002005667176160457
0.78	0.41348816606378136	0.0001994237724049202
0.782	0.4122998010162014	0.00019836457807141444
0.784	0.4111430842221703	0.00019733456164446484
0.786	0.4100179661697194	0.0001963264931506075
0.788	0.4089241597791758	0.0001953112877463893
0.79	0.40786133127953844	0.00019424638498086134
0.792	0.4068293059945348	0.00019319139566642768
0.794	0.40582797699485806	0.0001921864001560459
0.796	0.4048571119140621	0.00019124387136461394
0.798	0.40391646331552944	0.00019036915991723843
0.8	0.4030057611426133	0.0001895993302583037
0.802	0.40212465703581635	0.00018893860172459163
0.804	0.4012728196627795	0.0001883580506641478
0.806	0.40044989938784237	0.00018783165763684717
0.808	0.39965556068974273	0.00018732711870430262
0.81	0.3988895932154204	0.00018684057161856733
0.812	0.39815200180170573	0.00018636364530163867
0.814	0.3974426799672627	0.0001858830343402021
0.816	0.3967616210312739	0.00018532850736759782
0.818	0.39610896666793727	0.00018475293047794453
0.82	0.395484569923665	0.00018423120045837904
0.822	0.39488812154398967	0.00018381271109532
0.824	0.3943191488183753	0.0001835478586000791
0.826	0.3937770887764844	0.00018337629332415561
0.828	0.39326128547137273	0.00018320864424776692
0.83	0.3927711559752053	0.00018295273870094428
0.832	0.3923063765288509	0.00018268154332883035
0.834	0.39186656329454883	0.0001824402440046939
0.836	0.39145137212892106	0.00018222457384035537
0.838	0.3910606706567839	0.00018203279633486474
0.84	0.3906943556079846	0.00018182375707882087
