B and C, n=4, tf = 2.0
Energy = -1.9999987988191303
[(0, 1), (0, 3), (0, 2), (1, 2), (1, 3), (2, 3)]
0.0	0.7590938875248743	-0.0002556935289062112
0.002	0.7643441491820513	-0.0002510771322119009
0.004	0.7695730173012485	-0.00024774677631162444
0.006	0.7747676561757267	-0.00024523384923958585
0.008	0.7799461636281018	-0.00024085206173610207
0.01	0.7851131972934638	-0.00023562790286980884
0.012	0.79025976836598	-0.00023041263073061286
0.014	0.7953849021202414	-0.00022530067755262978
0.016	0.800486680168377	-0.00021998985569111895
0.018	0.8055643728547713	-0.0002146376676552264
0.02	0.8106173126497117	-0.00020929871866512406
0.022	0.815644043693454	-0.0002041541786176465
0.024	0.8206452858485177	-0.00019911550247736498
0.026	0.8256196333711393	-0.00019413805090660874
0.028	0.8305674544977032	-0.00018915676031550088
0.03	0.8354875159915749	-0.00018416273887124357
0.032	0.8403784232844704	-0.0001793556571089705
0.034	0.845238981667642	-0.00017474694088652487
0.036	0.8500685113007408	-0.0001703156415391871
0.038	0.8548667409882618	-0.000165791688950645
0.04	0.8596332389307609	-0.00016082486579013788
0.042	0.8643679604000345	-0.00015536652266862072
0.044	0.8690708409188138	-0.00014970015956056182
0.046	0.873741312169119	-0.00014410236289991163
0.048	0.8783777684912769	-0.0001387170750758726
0.05	0.8829787259115824	-0.00013378987100343132
0.052	0.8875440989612567	-0.000129365531136294
0.054	0.8920741887311017	-0.00012477552866083097
0.056	0.8965688476751021	-0.00011938161649549528
0.058	0.9010271606354938	-0.00011346316312257909
0.06	0.9054481873754909	-0.00010763746666289653
0.062	0.9098307028668249	-0.00010215815436379061
0.064	0.9141741496377617	-9.688273168981243e-05
0.066	0.9184781957824669	-9.186470081565257e-05
0.068	0.9227431496862275	-8.692808286800413e-05
0.07	0.9269689920535356	-8.207535458124027e-05
0.072	0.9311556747031745	-7.719034881031872e-05
0.074	0.9353021654087347	-7.199822408082701e-05
0.076	0.9394077743620898	-6.671167139321588e-05
0.078	0.9434719686596078	-6.120728586855861e-05
0.08	0.9474940489142507	-5.571721805502916e-05
0.082	0.9514736425127859	-5.015107619843473e-05
0.084	0.9554108569021217	-4.485780622265345e-05
0.086	0.9593051369671729	-3.9876430796059736e-05
0.088	0.9631557631358549	-3.4682234518579325e-05
0.09	0.9669628875453948	-2.9541768296115212e-05
0.092	0.9707268717241365	-2.4476136958495598e-05
0.094	0.9744469699265136	-1.9019267220254932e-05
0.096	0.9781223276203601	-1.301371466216894e-05
0.098	0.9817524631207578	-7.089059038123402e-06
0.1	0.9853368430261759	-1.580125200961735e-06
0.102	0.9888747702920879	3.6726429314959397e-06
0.104	0.992366825533021	9.063293566424768e-06
0.106	0.9958129235514542	1.4840317724140739e-05
0.108	0.9992138695991504	2.085983417671189e-05
0.11	0.9984218394245653	2.6784923287115348e-05
0.112	0.9949489561748486	3.0702482194056024e-05
0.114	0.9933010954396471	3.520454651634308e-05
0.116	0.9930738906525236	4.0914124010915653e-05
0.118	0.9967845188110614	4.580376812446385e-05
0.12	0.9874402928103355	5.1015878193061415e-05
0.122	0.981137417419156	5.6864401175471535e-05
0.124	0.9793171517377733	6.263200720130202e-05
0.126	0.9787420353759089	6.793548783640135e-05
0.128	0.9781530875653085	7.368994053102984e-05
0.13	0.984280384427621	7.987631465905531e-05
0.132	0.9858408215133508	8.519173013699088e-05
0.134	0.9769829480871914	9.038177329467878e-05
0.136	0.9485294468704188	9.533771471342822e-05
0.138	0.9381435103525759	0.00010051540555772176
0.14	0.9393595142149624	0.00010646019961157993
0.142	0.9098639682639779	0.00011190383926557024
0.144	0.8995511803787628	0.00011804413099381073
0.146	0.9005852659756717	0.00012296738781714112
0.148	0.9016336659164793	0.00013069177528690634
0.15	0.8761337827353104	0.00013621458282586651
0.152	0.8663568070555305	0.00014234490896408714
0.154	0.8671633984245118	0.00014770890941706583
0.156	0.8679758605389777	0.0001528295856129125
0.158	0.8688081972719143	0.00016157118624243738
0.16	0.8496043413896823	0.00016733642346306032
0.162	0.8439022678822572	0.00017043719279197234
0.164	0.844409463906152	0.00017688813116811808
0.166	0.8449224345875023	0.00018193560453694246
0.168	0.8454477289374828	0.00018711771432428081
0.17	0.8459957066408764	0.00019214889082941333
0.172	0.8390800719664753	0.00019708778837768115
0.174	0.8388518275674741	0.00020228287733126127
0.176	0.8386303933234094	0.00020711295069142377
0.178	0.8384214663798455	0.00021197827592212004
0.18	0.838223605278183	0.00021708082189153544
0.182	0.838035156182105	0.00022197746830021625
0.184	0.8378556093420896	0.00022696832965340974
0.186	0.837686883680796	0.00023211602182193758
0.188	0.8375303374093832	0.00023730236450059117
0.19	0.8373849547318997	0.0002424875899081913
0.192	0.8372501293982995	0.0002476476157005081
0.194	0.837125693060113	0.0002528639757192197
0.196	0.8370116411452564	0.00025809903770968035
0.198	0.8369079820936437	0.0002632331298978441
0.2	0.8368145891757898	0.0002680614873594722
0.202	0.836731698030049	0.000272647603863585
0.204	0.8366608010942335	0.00027755039249044433
0.206	0.8366022727791971	0.0002828983583508249
0.208	0.8365537593068594	0.000288526461455052
0.21	0.8365135673026709	0.0002939174319345206
0.212	0.8364824601953073	0.00029865866646272554
0.214	0.8364602706277084	0.00030275542074387207
0.216	0.8364501608465803	0.0003066874100130512
0.218	0.8364639384239005	0.0003116350982592664
0.22	0.8363899365095567	0.00031761691403275893
0.222	0.8359973761204196	0.0003233642732470843
0.224	0.8356274148397095	0.00032960010517180116
0.226	0.8352699646046108	0.0003352101073760272
0.228	0.8349188012929428	0.00034005919295787557
0.23	0.8345782812291874	0.00034405284844563067
0.232	0.8342399615295072	0.00034807900105182643
0.234	0.8339122578590961	0.0003528658773700455
0.236	0.833600976139997	0.00035819692066929587
0.238	0.8333039807262306	0.00036316959287840955
0.24	0.8330176373781786	0.0003679711151927112
0.242	0.8327415198547989	0.0003727814063743118
0.244	0.8324755630011539	0.0003775672846741962
0.246	0.8322201769348369	0.0003822988806554406
0.248	0.8319757742218402	0.00038698937735504035
0.25	0.8317423260800154	0.0003916649893898061
0.252	0.831519858585181	0.0003962948734971272
0.254	0.831308444487684	0.0004008613071410094
0.256	0.8311080882765184	0.0004053955875678028
0.258	0.8309188865416176	0.0004099271405849647
0.26	0.8307408265724741	0.00041446709057813
0.262	0.8305738600897339	0.00041896338611846495
0.264	0.8304177415778696	0.0004233412537440473
0.266	0.830272321117888	0.00042744022947210913
0.268	0.8301378748505945	0.00043142669478224427
0.27	0.8300159276546812	0.00043541301613303496
0.272	0.8299075388925589	0.0004395107908493068
0.274	0.829808296920494	0.00044389940102612657
0.276	0.8297184329641386	0.0004478871330563794
0.278	0.8296385865056423	0.0004519586366070194
0.28	0.8295707951293082	0.00045591185625087904
0.282	0.829525417521108	0.00046050590031293526
0.284	0.8290610366807291	0.0004641651581023809
0.286	0.8286173317492261	0.00046861286748167696
0.288	0.8281865564608877	0.0004728642368527214
0.29	0.8277648032645495	0.000476835404060294
0.292	0.8273534799445547	0.00048065671092389906
0.294	0.8269472307132139	0.00048456742010360987
0.296	0.8265495082582737	0.0004886634223524311
0.298	0.826167931279098	0.0004929433852406406
0.3	0.8258013470268134	0.0004969893238341294
0.302	0.8254463799939723	0.0005007515564821596
0.304	0.8251024157733733	0.0005044830691841029
0.306	0.824769811307689	0.0005081297735903822
0.308	0.8244488254093966	0.000511713905748723
0.31	0.8241393550182485	0.0005152624430026509
0.312	0.8238412787900182	0.0005187675828067784
0.314	0.8235545976475419	0.0005221998421499618
0.316	0.8232794007471177	0.0005255447586702267
0.318	0.8230158366935001	0.0005289232760128937
0.32	0.8227637687544516	0.0005323449598179097
0.322	0.8225236802933893	0.0005357534773484662
0.324	0.8222975642339061	0.0005392857188941114
0.326	0.8220843409255891	0.0005431695676860748
0.328	0.8218787823809196	0.0005469981167816607
0.33	0.8216852270580458	0.0005505125070044414
0.332	0.8215033574685521	0.0005534621279643659
0.334	0.8213487321583837	0.0005568134630962174
0.336	0.8208237110125133	0.0005597770559005455
0.338	0.8202580501597724	0.0005626389750599259
0.34	0.8197123976827401	0.0005660990311474601
0.342	0.819178721022255	0.0005695025195537329
0.344	0.8186560752811644	0.0005721131963795645
0.346	0.8181409574471302	0.0005745368221557468
0.348	0.8176368823496478	0.0005771461962463253
0.35	0.8171480636467379	0.0005800255931233123
0.352	0.8166735369301117	0.0005830449617712508
0.354	0.8162116979879175	0.0005861466897839618
0.356	0.8157621410049373	0.0005892471681264722
0.358	0.815324936995499	0.0005921062987844228
0.36	0.8149005171279196	0.0005948696719559887
0.362	0.8144891259563655	0.000597594711753302
0.364	0.8140898545761377	0.0006002940103171372
0.366	0.8137024700531883	0.0006030122757546275
0.368	0.8133271793280622	0.0006057276953468083
0.37	0.8129656699586894	0.0006088523430492487
0.372	0.8126296072776674	0.0006142042842146311
0.374	0.8122218406837687	0.0006178082939949092
0.376	0.8114811445714697	0.0006204943922107353
0.378	0.8107617419070688	0.0006234343811355181
0.38	0.8100555865043118	0.0006259065648100692
0.382	0.8093614911096957	0.0006282427253457568
0.384	0.808679228985563	0.0006305152367238331
0.386	0.8080058360266368	0.0006327192412743099
0.388	0.8073460770558986	0.000634741152811924
0.39	0.8067033911045285	0.0006370209806448313
0.392	0.8060756326161675	0.0006392700683840458
0.394	0.8054586207614067	0.0006414910153906273
0.396	0.8048546469146969	0.0006436344204155398
0.398	0.8042651760175233	0.0006456428165257377
0.4	0.8036990915441331	0.0006509832913276781
0.402	0.8027529913747227	0.0006531048197477435
0.404	0.8018021996023557	0.0006550610323753231
0.406	0.8008655540058269	0.0006570675653911479
0.408	0.7999464887061986	0.0006591787458402748
0.41	0.799042676866693	0.0006610501641737959
0.412	0.7981522732395909	0.0006628261550673947
0.414	0.7972976125886994	0.000666225437576759
0.416	0.7962862800995916	0.0006682028506625748
0.418	0.7950546874435492	0.0006687628886977437
0.42	0.7938563964512146	0.000670592120637796
0.422	0.7925753896048965	0.0006730071048294331
0.424	0.7909707744995459	0.0006735947055703448
0.426	0.7891004645822071	0.0006752401988693209
0.428	0.7872682453910006	0.0006774765863369545
0.43	0.7853050175729496	0.0006794261384294262
0.432	0.7831515000065861	0.0006809556434658063
0.434	0.7810111956363731	0.0006822200704715733
0.436	0.7788909354076141	0.0006835954218467472
0.438	0.7767868642431666	0.0006848932992929296
0.44	0.774698288991667	0.000686068214624292
0.442	0.7726249742270016	0.0006871580022663609
0.444	0.770566918674205	0.0006882076269718387
0.446	0.768525725503844	0.0006893081397875631
0.448	0.7665028331813448	0.0006905289056812203
0.45	0.7644830912455832	0.0006912222341625418
0.452	0.7627762654789249	0.0006925852407026895
0.454	0.7611235311107033	0.0006939760426965813
0.456	0.7594793667278046	0.0006945274363406445
0.458	0.7578513404824954	0.0006948019482509449
0.46	0.7562410857313411	0.0006953837900659787
0.462	0.7546476696817949	0.0006960369014995249
0.464	0.7530712902736275	0.0006965914277664575
0.466	0.7515150946509346	0.0006973842298625549
0.468	0.7499704491158449	0.0006973290717673108
0.47	0.7517024978228763	0.0006965230527801181
0.472	0.7545454177012326	0.0006980595875309692
0.474	0.7562435399936964	0.000697839720597504
0.476	0.7551027105724838	0.0006982545751073599
0.478	0.7539822871184483	0.0006988664537859179
0.48	0.7528810256734917	0.0006993798763726966
0.482	0.7517971094425623	0.0006996664457959156
0.484	0.7507306569330116	0.0006997258316610855
0.486	0.749681890289028	0.0006997739554105986
0.488	0.7486515139266706	0.0006999532477676151
0.49	0.7476396676389543	0.0007002353900566749
0.492	0.7466460477697506	0.0007004601999729965
0.494	0.7456712260355494	0.0007005623851005782
0.496	0.7447151828992218	0.0007005317427529467
0.498	0.7437779425046208	0.0007003903471596296
0.5	0.742861004833594	0.0007003791698684259
0.502	0.7419540606146489	0.000700337502536702
0.504	0.7444744163041722	0.0006997993548601422
0.506	0.7527691233324255	0.0007007404883685175
0.508	0.7546815016343891	0.0007005483925495715
0.51	0.7541829936664078	0.0006995537750382197
0.512	0.7537046522890632	0.0006990211782892941
0.514	0.7532470072709492	0.0006986436444890998
0.516	0.7528013975132939	0.0006984242734899004
0.518	0.7625170632684817	0.0006991057414532931
0.52	0.7701167521773533	0.0006986006253503207
0.522	0.7700602042865795	0.0006976813646749902
0.524	0.784414301050277	0.0006967191949550366
0.526	0.7806375484757535	0.0006964097912971201
0.528	0.7768588036569077	0.0006957452325288271
0.53	0.7730773559478064	0.0006950183819650624
0.532	0.7692935270998668	0.0006942491068627765
0.534	0.7655077003648483	0.0006934702693079386
0.536	0.7617206560495144	0.0006926537867130156
0.538	0.7579325959565295	0.0006917881362972778
0.54	0.7541440247546544	0.0006909125629039614
0.542	0.750355556960598	0.000690012382257077
0.544	0.7465673005043086	0.0006890477825210739
0.546	0.7427799510917042	0.0006880237551412371
0.548	0.7389939816180834	0.0006869702437120873
0.55	0.7352099398607693	0.0006859367960297402
0.552	0.7314284188884077	0.0006849372485310534
0.554	0.7276494700382645	0.000683886356488278
0.556	0.7238737831324639	0.0006827327825016938
0.558	0.7201020262286915	0.0006815609420422336
0.56	0.7163342590780676	0.0006803812875747217
0.562	0.7125710486702035	0.0006791663435941758
0.564	0.7088126084275781	0.0006779186742486704
0.566	0.7050593700055462	0.0006766450937515656
0.568	0.7013119132528406	0.0006753289337524254
0.57	0.6975705662384764	0.0006739552178374186
0.572	0.6938356272518942	0.0006725479844369026
0.574	0.6901075100856308	0.0006711168605847556
0.576	0.6863865519344631	0.000669665890988061
0.578	0.6826732825170526	0.0006681818614742985
0.58	0.6789681156955776	0.0006666478649546004
0.582	0.6752716057772629	0.0006650620963658885
0.584	0.6715842970166869	0.0006633846202690544
0.586	0.6679066445949197	0.0006615726118065351
0.588	0.6642390696714149	0.0006597205045443394
0.59	0.6605822157291069	0.0006578877123706826
0.592	0.6569365721847578	0.0006561369802240216
0.594	0.6533024475274325	0.0006544773537270517
0.596	0.6496800860027269	0.0006528487643998257
0.598	0.646069712473533	0.000651195241603942
0.6	0.6424716571171646	0.0006494324822952941
0.602	0.6388863743443778	0.0006475284908961489
0.604	0.6353143387322702	0.0006454781588214804
0.606	0.6317560584963	0.0006433256049331521
0.608	0.6282120772476935	0.0006411262147450699
0.61	0.6246829720709497	0.0006389556059048888
0.612	0.6211693197546946	0.0006368845168445107
0.614	0.6176714681701256	0.0006349215922684618
0.616	0.6141896658606706	0.0006329986436874237
0.618	0.6107242835308475	0.0006310418984881334
0.62	0.6072756419451699	0.0006289331371446098
0.622	0.6038439928632156	0.000626706887189063
0.624	0.6004297052342443	0.0006244650931568028
0.626	0.5970331186400117	0.0006222496551218232
0.628	0.5936547417894166	0.0006200541101739621
0.63	0.590295040011384	0.0006178238862042836
0.632	0.5869545903073602	0.000615494332179535
0.634	0.5836338733632943	0.0006130730863894776
0.636	0.5803334001645615	0.0006106352494542749
0.638	0.5770535247314735	0.0006082281990782493
0.64	0.5737945441265667	0.0006058869378416445
0.642	0.5705566975500996	0.0006035998810276291
0.644	0.5673403797228488	0.0006013470972421608
0.646	0.564145789091366	0.0005990839072990556
0.648	0.5609731073319629	0.0005967549507571307
0.65	0.5578226151140143	0.0005943470346267063
0.652	0.5546946246154866	0.0005918341346883918
0.654	0.5515894273600751	0.0005891490890617829
0.656	0.5485074333853209	0.0005864155787126124
0.658	0.5454489962501682	0.0005837053983505924
0.66	0.542414482147022	0.0005810789373165079
0.662	0.5394043953469235	0.0005786235058156605
0.664	0.5364191045159779	0.0005762831306822119
0.666	0.5334592065379402	0.0005739033412590425
0.668	0.530525229221788	0.000571358656726001
0.67	0.5276175710569873	0.0005685270012584717
0.672	0.5247366445053826	0.0005655696393741597
0.674	0.5218828416754117	0.000562810258119939
0.676	0.5190562631253827	0.0005603008346678415
0.678	0.5162567352714721	0.0005578407426896984
0.68	0.5134839912229318	0.0005552300352092907
0.682	0.5107381018326729	0.0005523518893111035
0.684	0.5080192353821243	0.0005493252793564302
0.686	0.5053276880467716	0.000546253132449874
0.688	0.5026639740340865	0.0005432821211755479
0.69	0.5000285376427703	0.0005404500032120327
0.692	0.4974217694153395	0.0005376534427602442
0.694	0.49484395644122897	0.0005348081214939793
0.696	0.4922955802548273	0.0005317987281325751
0.698	0.48977685218429184	0.0005287197963976878
0.7	0.48728785307140066	0.0005256783124066022
0.702	0.48482877133504565	0.0005228014345885143
0.704	0.48239971225639	0.0005200803521609801
0.706	0.48000082962182006	0.0005174287920508419
0.708	0.47763236904783796	0.000514755238584387
0.71	0.4752944551581845	0.0005119825514458276
0.712	0.4729872695185925	0.0005091342911220653
0.714	0.47071120313258746	0.0005062126466925457
0.716	0.4684665574662756	0.0005031732666331903
0.718	0.4662536649458989	0.0005001385914121248
0.72	0.46407253774680995	0.0004971928188777439
0.722	0.4619230769755702	0.0004944216606266177
0.724	0.4598050822651079	0.0004918687176308639
0.726	0.45771842806244667	0.000489393710997342
0.728	0.4556630710145199	0.000486854932364951
0.73	0.45363911119084094	0.00048405465051682556
0.732	0.45164693235513603	0.0004809959787677731
0.734	0.44968686973544364	0.00047773775060810236
0.736	0.44775912235895593	0.000474441816450899
0.738	0.4458637211393752	0.0004712369669102254
0.74	0.44400069900837474	0.00046818218362791944
0.742	0.44216995225400657	0.0004652866588297916
0.744	0.440371495525117	0.00046250603907407525
0.746	0.4386050757252191	0.00045976964778814133
0.748	0.4368704833038619	0.00045701981236257946
0.75	0.43516786562652665	0.0004542246076121685
0.752	0.43349736965588087	0.000451374876929634
0.754	0.4318591996896472	0.00044852645054637916
0.756	0.43025379493872123	0.00044563154366262375
0.758	0.42868136445855864	0.00044276483196132796
0.76	0.42714190326603246	0.0004399921383639281
0.762	0.4256353008434926	0.0004373422532610166
0.764	0.42416133089292635	0.00043486274767832317
0.766	0.4227197843012133	0.0004324637621920518
0.768	0.4213103305561744	0.00043000092639160735
0.77	0.4199324129708045	0.00042732631266218304
0.772	0.4185856539106452	0.00042434227580105677
0.774	0.4172700164754634	0.00042119050347677774
0.776	0.4159856732562944	0.00041801333425774394
0.778	0.41473290870388546	0.00041494637426313374
0.78	0.4135119349861793	0.0004121190943724429
0.782	0.41232283349016663	0.00040953241545640864
0.784	0.41116559860871155	0.00040709137850639555
0.786	0.4100401765936306	0.0004047473506232841
0.788	0.40894633868665065	0.0004024379483695803
0.79	0.40788368315819895	0.00040007167884402385
0.792	0.40685174069102964	0.0003976757509775784
0.794	0.40585025622341725	0.00039529892890861765
0.796	0.40487915214812675	0.0003929214468728964
0.798	0.4039382240956091	0.00039052057377731656
0.8	0.40302714776376536	0.000388058394197306
0.802	0.40214574401043096	0.0003855450712349322
0.804	0.40129381857055063	0.00038301385977562025
0.806	0.4004710386277635	0.00038046948936759466
0.808	0.39967712099918273	0.0003778807212906337
0.81	0.39891177135452854	0.00037523870830256933
0.812	0.3981747357533571	0.0003725422344390845
0.814	0.3974659192312384	0.00036982464836086623
0.816	0.3967852046133281	0.00036714757645356366
0.818	0.396132567706985	0.00036456237469123173
0.82	0.39550798868221804	0.0003620757041871807
0.822	0.39491117373253837	0.0003596899638339743
0.824	0.39434186158934526	0.000357414079620675
0.826	0.3937995474563736	0.00035522705695403486
0.828	0.39328364945685057	0.0003531028360322791
0.83	0.39279367690096756	0.00035095440687328214
0.832	0.39232914197998847	0.00034884447514495903
0.834	0.3918896066395474	0.00034677715264697095
0.836	0.3914747550580511	0.0003447727966740602
0.838	0.39108453429973655	0.0003427930302164414
0.84	0.3907188327985003	0.0003408163381748465
0.842	0.3903773981970032	0.0003388193853354794
